-4524
-4524
-4524
-4524
-4524
-4524
-4524
-4524
-3744
-4212
-4524
-4681
-4993
-4837
-4993
-5461
-5617
-5773
-5305
-4837
-5461
-5617
-5929
-5617
-4837
-4212
-4837
-5929
-6397
-7333
-7021
-7645
-7801
-8113
-8581
-8581
-8581
-8269
-7957
-8269
-8581
-9049
-9049
-9049
-9049
-8893
-9205
-9518
-8893
-8581
-8581
-8737
-8893
-9518
-9049
-9362
-8737
-9049
-9362
-9830
-9986
-10454
-11234
-12014
-12014
-12638
-14199
-15135
-15135
-13262
-10298
-6865
-2184
3744
11702
19348
24341
26213
23873
16227
5305
-5149
-11390
-13574
-13262
-11546
-10298
-10142
-10454
-10766
-10298
-10142
-9830
-9674
-9986
-10454
-10610
-10142
-10766
-10454
-10298
-10454
-10298
-10142
-10298
-10298
-10766
-11078
-10454
-10142
-9518
-9986
-9986
-10298
-10610
-10454
-10610
-10766
-11078
-11078
-10610
-10298
-10298
-10298
-10610
-10922
-10142
-10142
-10298
-10298
-10454
-10454
-10610
-10298
-10610
-10922
-11078
-10922
-10766
-10298
-9986
-10454
-10298
-10766
-10298
-10454
-10454
-10766
-10766
-11078
-10610
-10610
-10454
-10298
-10922
-10922
-10766
-10454
-10454
-10454
-10922
-11078
-11078
-10766
-10766
-10454
-10922
-11234
-11234
-11234
-11390
-11234
-11546
-12014
-11546
-11234
-11078
-11234
-11702
-11702
-11390
-11390
-11234
-11234
-11390
-11546
-11078
-10298
-10142
-10142
-10454
-10610
-9830
-9362
-9362
-9049
-9205
-9049
-8893
-8581
-7957
-7801
-7801
-8269
-7957
-7645
-7177
-7645
-7645
-7957
-7957
-7489
-7801
-7957
-7645
-7957
-7801
-7801
-8269
-8113
-8113
-8269
-8425
-8269
-8113
-8581
-8737
-9049
-8581
-8425
-8113
-8737
-8737
-8893
-8581
-8581
-8269
-8425
-8893
-9049
-8737
-8581
-8893
-8737
-9362
-9362
-9518
-9205
-9362
-9674
-9674
-9518
-9205
-8893
-8893
-9049
-9205
-9674
-9049
-9205
-9362
-9518
-9674
-10142
-9674
-9362
-9049
-9674
-10142
-10298
-9830
-9362
-9518
-9674
-9986
-10298
-10142
-9830
-9674
-9518
-9518
-9674
-9362
-9518
-9049
-9362
-9362
-9518
-9518
-9049
-8737
-9205
-9518
-9830
-9518
-9205
-9049
-8737
-8425
-8581
-8581
-8425
-7801
-7801
-7957
-7021
-6865
-6397
-6241
-6397
-6709
-7177
-6865
-7021
-7021
-7021
-7177
-7333
-7489
-7333
-6865
-6553
-6397
-7645
-8893
-8893
-9362
-9674
-10298
-10298
-10142
-9830
-9986
-9830
-10142
-10610
-10766
-10610
-10610
-10922
-10766
-11078
-10298
-10454
-10298
-9986
-10766
-11078
-10610
-10298
-10142
-10298
-10922
-11390
-11234
-11858
-13262
-13886
-14823
-15915
-16695
-15759
-12950
-9362
-4993
-468
7333
15291
22468
27305
29334
28242
23561
15291
5149
-3432
-8425
-12170
-14043
-14823
-14199
-13262
-12170
-12170
-12014
-12170
-11858
-11858
-11858
-12326
-12014
-12014
-12014
-11702
-12326
-12794
-12794
-12482
-12326
-12170
-12638
-12326
-12014
-11702
-12170
-12170
-12638
-12794
-12794
-12170
-12170
-12326
-12638
-12950
-12482
-12794
-12638
-12794
-12950
-12794
-12482
-12482
-12326
-12170
-12638
-12794
-12170
-12170
-12014
-12014
-12794
-12638
-12326
-12170
-11702
-12170
-12326
-12794
-12482
-12170
-12170
-12014
-12638
-12950
-12950
-12482
-12326
-12638
-12950
-13106
-13106
-12794
-12950
-13262
-13106
-13574
-13418
-13418
-13106
-13418
-14043
-14199
-14043
-13574
-13886
-14043
-14199
-14667
-14355
-14199
-14043
-14199
-14667
-14823
-14355
-14043
-13886
-13730
-13574
-13730
-12794
-12326
-11546
-11390
-11234
-11390
-10610
-10142
-9830
-9986
-10298
-10298
-9986
-9674
-9362
-9362
-9986
-9986
-9830
-9518
-9518
-9205
-9986
-10298
-9518
-9674
-9362
-9362
-9986
-10142
-9674
-9518
-9830
-9518
-9830
-9830
-9674
-9205
-9049
-9518
-9674
-9986
-9830
-9362
-9830
-9830
-9830
-10298
-9830
-9986
-9830
-10142
-10454
-10610
-10454
-10454
-10298
-10142
-10766
-10922
-10766
-10454
-10298
-10298
-10766
-10766
-10766
-9986
-10298
-10454
-10610
-11078
-10454
-10298
-10298
-10454
-11078
-11234
-11078
-10922
-10610
-10766
-10766
-10766
-10766
-10298
-10298
-10454
-10766
-10922
-10922
-10610
-10298
-10766
-10766
-11078
-10922
-10610
-10298
-10610
-10610
-10610
-10298
-10454
-10298
-10454
-10766
-10766
-10610
-10298
-9830
-9205
-9362
-9205
-8893
-8581
-8269
-8269
-8269
-7957
-7801
-7489
-7021
-6709
-7489
-7645
-7489
-7645
-7333
-7645
-7801
-8581
-8581
-8269
-7801
-7021
-6865
-7177
-8269
-8425
-8737
-8893
-9518
-9986
-10610
-10298
-10454
-10454
-11078
-11546
-11234
-10766
-10922
-11078
-11390
-11702
-11858
-11546
-11390
-11390
-11858
-12014
-11858
-11702
-11078
-11546
-12170
-12638
-12794
-13574
-14511
-15291
-16227
-17319
-17787
-16383
-12638
-7801
-2808
3744
12794
21532
27617
29958
26525
16227
1560
-9986
-15603
-15759
-13886
-12950
-12326
-12170
-12326
-12170
-12326
-12638
-12326
-12638
-12170
-12326
-12326
-12794
-12638
-12482
-12482
-12950
-12638
-13106
-12950
-12638
-12638
-13106
-13106
-13574
-13106
-12794
-12794
-12638
-13262
-13418
-13106
-12950
-12794
-12794
-13262
-13106
-12482
-12326
-12482
-12482
-12326
-12950
-12638
-12170
-12482
-12482
-12950
-13262
-13262
-12950
-12950
-12794
-13262
-13262
-13106
-12950
-12482
-12482
-12794
-13262
-12794
-12638
-12326
-12482
-12482
-12638
-12014
-12482
-12170
-12170
-12482
-12950
-12638
-12638
-12794
-12950
-13106
-13106
-13262
-12950
-12950
-12794
-13574
-13418
-13574
-13106
-13106
-13106
-13106
-13262
-13262
-12950
-12326
-12326
-12170
-11702
-11234
-10610
-10454
-10298
-10454
-10454
-10142
-9986
-9518
-9518
-9830
-9674
-9518
-9362
-9362
-9362
-9674
-9674
-9674
-9830
-9362
-9518
-9830
-9986
-10142
-9674
-9518
-9518
-9986
-10142
-9518
-9674
-9205
-9674
-10142
-10298
-9986
-9986
-9986
-10142
-10922
-10922
-10610
-10454
-10298
-10454
-10610
-11234
-10922
-10922
-11078
-11234
-11078
-11390
-11078
-10922
-10610
-11078
-10922
-11390
-11390
-10922
-11078
-10922
-11546
-11858
-11546
-11234
-11390
-11234
-11390
-11858
-11546
-11390
-10922
-10922
-10922
-11546
-11390
-10766
-10766
-10610
-11078
-11390
-11234
-11078
-11078
-11078
-11702
-12014
-11078
-11234
-11078
-11234
-11234
-11546
-11234
-10766
-11078
-10766
-10766
-10766
-10610
-9674
-9518
-9518
-9674
-9518
-9049
-8893
-8581
-8737
-8737
-8581
-8269
-7957
-7645
-8113
-8269
-8581
-8737
-8269
-8425
-8581
-8737
-8581
-8737
-8581
-8269
-7957
-7489
-8113
-8737
-9674
-9674
-10766
-11234
-11858
-12014
-11858
-11546
-11702
-12014
-12170
-12326
-12014
-12014
-12014
-12326
-12638
-12482
-11702
-11702
-12170
-12326
-12950
-12638
-12482
-12170
-12638
-13262
-14355
-14823
-15759
-15915
-16383
-16851
-18724
-20128
-19660
-17943
-15447
-12014
-8425
-3588
2808
11546
19816
25277
26837
24029
14823
2028
-9518
-15603
-16227
-14823
-12794
-12170
-12170
-12482
-12794
-12638
-12014
-12170
-12326
-12638
-12794
-12638
-12482
-12170
-12326
-12794
-12950
-12794
-12326
-12638
-12794
-12638
-12638
-12794
-12170
-12014
-12170
-12326
-12482
-12482
-12482
-12326
-12326
-12638
-12638
-12482
-12326
-12014
-11702
-12014
-12326
-12170
-12014
-11702
-12014
-12326
-12326
-12014
-11702
-11702
-12014
-12326
-12170
-12170
-11390
-11702
-12014
-12326
-11858
-12014
-11702
-11858
-12170
-11858
-11702
-11702
-11702
-11702
-11858
-12170
-12170
-11390
-11546
-11702
-12014
-12170
-12170
-11702
-11390
-12014
-11858
-12170
-11702
-11702
-11390
-11546
-12014
-12326
-12014
-12014
-11546
-11390
-11546
-11702
-10922
-10454
-9986
-9830
-9986
-10142
-9830
-9205
-8893
-9362
-9205
-8893
-8893
-8737
-8425
-8737
-9049
-9205
-9205
-9049
-8737
-9049
-9205
-9674
-9205
-8893
-8737
-8581
-9205
-9518
-9362
-9205
-9205
-8893
-9362
-9518
-9362
-9205
-9362
-9518
-9830
-9674
-9830
-9205
-9362
-9674
-10298
-10610
-10298
-9986
-9986
-9830
-10142
-10454
-10298
-9830
-9986
-9986
-10298
-10766
-10610
-10454
-10298
-10454
-10766
-10922
-10766
-10610
-10454
-10454
-10298
-10454
-10610
-10454
-9986
-10610
-10610
-10922
-11390
-11234
-10766
-10766
-10922
-10922
-10922
-10610
-10610
-10766
-10766
-11858
-11234
-11234
-10766
-10766
-10922
-11078
-10766
-10298
-10298
-10454
-10454
-10610
-10298
-9986
-9049
-9049
-9362
-9518
-8893
-8737
-8581
-8737
-8581
-8425
-8269
-7801
-7177
-7645
-7489
-7957
-7957
-7645
-7333
-7957
-8269
-8113
-7957
-8425
-8269
-8737
-7957
-7801
-7645
-8269
-8737
-9362
-9830
-10142
-10454
-10766
-10298
-10454
-10766
-11234
-10922
-10610
-10454
-10766
-11234
-11390
-11702
-11546
-11390
-11390
-11858
-11702
-11702
-11390
-11546
-11234
-11546
-11858
-11390
-11234
-10922
-11078
-11546
-12014
-12326
-13418
-13886
-15135
-16071
-17631
-17319
-14823
-11078
-6865
-1716
5773
14823
22000
25589
24341
16695
4524
-6241
-13106
-15603
-14979
-14043
-12794
-12482
-12170
-12170
-12482
-12638
-13262
-13262
-12638
-12326
-12638
-12638
-12950
-12638
-12014
-12170
-12326
-12326
-12326
-12326
-12014
-12170
-12170
-12482
-13262
-12794
-12482
-12326
-12482
-12638
-13262
-12950
-12638
-12638
-12638
-12794
-12950
-12638
-13106
-12638
-12794
-12794
-13106
-12950
-12638
-12326
-12326
-12326
-12482
-12326
-12326
-12638
-12638
-13106
-13574
-12950
-12638
-12326
-12170
-12950
-12638
-12638
-12482
-12326
-12326
-12638
-13106
-12950
-12482
-12326
-12482
-12638
-13262
-13262
-13262
-13106
-13262
-14043
-13886
-14043
-13574
-13886
-14667
-14199
-14355
-13730
-13574
-13262
-13418
-13886
-14043
-13886
-13418
-13106
-12794
-13262
-13106
-12638
-11858
-11546
-11390
-11390
-11390
-10766
-10298
-9830
-9518
-9518
-9986
-9674
-9674
-9518
-9674
-9830
-9986
-9830
-9518
-9518
-9205
-9674
-9986
-9674
-9830
-9205
-9362
-9518
-9362
-8893
-8737
-9049
-9205
-9518
-10142
-9518
-9362
-9362
-9830
-10142
-10454
-10142
-9830
-9986
-10454
-10298
-10610
-10142
-10142
-9986
-9830
-10454
-10454
-10766
-10454
-10142
-10298
-9830
-10454
-10298
-10298
-10298
-10298
-10454
-10610
-10298
-9986
-9830
-10142
-10454
-11078
-10766
-10610
-10454
-9986
-10142
-10922
-10298
-9830
-9830
-10298
-10298
-10454
-10454
-10298
-10298
-10298
-10610
-10610
-10610
-10142
-10142
-10142
-10766
-10922
-10610
-10298
-9986
-9674
-9518
-9518
-8581
-8425
-7957
-8113
-8269
-8113
-7801
-7333
-7333
-6865
-7333
-7333
-6865
-7177
-7021
-7333
-7645
-7957
-7489
-7177
-7177
-7801
-7957
-7801
-7177
-6397
-6085
-6553
-7177
-8425
-8425
-8893
-8893
-9674
-10298
-10610
-10610
-10766
-10922
-10922
-10610
-11078
-10766
-10610
-10610
-10766
-11078
-11546
-11078
-11546
-10766
-10610
-11234
-11858
-11234
-10766
-10922
-10922
-11078
-11858
-12170
-12326
-13262
-14199
-14823
-15915
-17007
-16851
-15447
-12638
-9205
-4993
1248
9830
18567
24965
27617
24809
16227
4056
-6709
-13262
-15603
-15291
-14043
-12482
-12170
-12326
-12326
-12482
-12170
-11858
-12014
-12014
-12482
-12794
-12794
-12170
-12170
-12638
-12638
-12950
-12794
-12326
-12326
-12482
-12950
-12950
-12950
-12482
-12170
-12170
-12794
-12950
-12638
-12326
-12326
-12326
-12638
-12794
-12794
-12482
-12170
-12326
-12794
-13262
-12950
-12638
-12794
-12638
-12950
-13262
-13262
-12794
-12326
-12170
-12482
-12794
-12794
-12482
-12170
-12794
-13106
-13106
-12950
-12950
-12638
-13106
-12950
-13262
-12794
-12482
-12638
-12482
-12482
-12794
-12482
-12326
-12326
-12638
-12794
-13262
-13262
-12794
-12794
-13106
-13418
-13886
-13730
-13574
-13418
-13418
-14043
-13886
-13886
-13574
-13574
-13886
-13730
-14043
-13418
-13418
-12950
-12482
-12482
-12014
-11390
-10454
-10298
-10142
-10298
-10298
-9674
-9205
-8893
-9049
-9049
-9674
-9205
-8893
-8737
-9362
-9049
-9205
-9049
-8737
-8581
-8581
-9049
-9049
-8893
-8425
-8425
-8425
-8581
-9049
-8893
-8581
-8581
-9049
-9205
-9518
-9205
-9205
-8893
-9049
-9362
-9518
-9674
-9205
-9362
-9518
-9674
-10142
-10142
-9830
-9674
-9830
-9830
-10142
-9986
-9674
-9986
-9830
-10298
-10298
-9986
-9674
-9674
-9674
-10298
-10454
-10298
-9986
-10142
-10142
-10298
-10454
-10298
-10142
-10142
-9986
-10142
-10298
-10142
-9830
-9518
-10142
-9830
-10454
-10298
-9674
-9986
-10298
-10298
-10454
-10298
-10298
-9986
-9986
-10298
-10298
-10142
-9830
-9830
-9830
-10298
-10298
-9986
-9830
-9518
-9518
-9205
-9830
-9362
-8581
-7957
-7957
-8113
-8269
-7957
-7333
-7177
-7021
-6865
-6865
-6709
-6241
-6397
-6397
-7021
-7333
-7489
-7177
-6709
-7489
-7489
-7801
-7333
-6553
-6241
-6865
-7957
-8581
-8893
-9362
-9518
-9986
-10298
-10142
-9986
-10298
-10298
-10454
-10610
-10766
-10610
-10454
-9986
-10142
-10454
-10766
-10766
-10766
-10454
-10610
-10766
-11078
-10610
-10610
-10610
-10610
-10766
-11078
-11390
-11546
-12638
-13886
-14979
-15447
-16227
-16695
-15759
-12950
-8737
-4212
2028
9362
18099
25277
29490
28710
24185
13886
624
-9205
-13886
-14667
-13262
-11858
-11234
-11234
-11546
-11858
-11858
-11702
-11546
-11390
-11546
-12014
-12014
-11702
-11546
-11546
-12014
-12326
-12014
-12014
-12170
-12014
-12326
-12794
-12482
-12326
-11858
-12326
-12326
-12482
-12482
-12326
-12170
-12170
-12326
-12638
-12170
-12014
-11702
-11702
-11858
-12170
-12014
-11546
-11546
-11546
-11702
-12014
-11546
-12170
-11702
-11546
-11858
-12170
-12170
-12014
-11702
-11702
-12014
-12326
-12170
-12014
-11702
-11858
-12014
-12170
-11858
-11858
-11546
-11546
-11390
-12170
-11390
-11390
-11234
-11702
-11858
-12482
-12170
-11702
-11702
-11546
-12014
-12170
-12170
-12170
-12170
-11702
-12014
-12326
-11858
-11546
-11702
-11702
-12170
-12638
-11702
-11546
-11234
-11702
-12014
-11858
-11546
-11234
-10766
-10766
-10298
-10298
-9830
-9674
-9205
-8893
-8893
-9205
-8737
-8425
-8737
-8737
-8737
-9049
-9049
-8737
-8581
-8737
-8893
-9049
-9049
-8737
-8737
-8893
-9049
-9362
-9205
-8893
-8737
-8893
-8893
-9205
-8893
-8737
-8581
-8737
-9049
-9674
-9518
-8893
-8425
-8425
-8581
-8893
-8893
-8425
-8269
-8269
-8269
-8737
-8269
-7645
-7333
-7333
-7801
-7801
-7645
-6709
-6865
-7645
-7957
-7177
-6397
-6553
-6865
-7177
-7489
-7489
-7645
-7801
-8425
-8893
-9830
-9986
-9986
-9674
-10298
-10610
-10766
-11234
-11390
-11234
-10922
-11078
-11702
-12014
-11702
-11546
-11390
-11390
-11546
-11858
-11234
-10922
-11078
-11078
-10922
-11390
-10922
-10922
-10610
-11078
-10922
-11702
-11390
-11702
-12482
-13418
-14823
-16227
-16227
-17163
-17787
-16851
-13886
-9518
-4368
780
8113
15915
22936
26369
27305
22936
12482
-780
-10454
-14979
-14667
-12950
-11702
-11390
-12014
-12482
-11858
-12170
-11702
-12014
-12326
-12638
-12170
-11858
-12014
-12014
-12326
-12482
-12638
-12482
-12170
-12170
-12326
-12482
-12170
-12014
-12170
-12014
-12794
-13106
-12638
-12794
-12170
-12170
-12170
-12482
-12482
-12170
-11702
-11858
-12326
-12482
-12170
-12482
-12170
-12326
-12794
-12950
-12638
-12014
-12014
-11858
-12482
-12482
-12326
-12170
-11858
-11702
-12326
-12326
-12014
-11858
-11702
-12014
-12170
-12482
-12482
-12014
-11858
-12326
-12170
-12482
-12326
-12014
-11858
-12014
-12326
-12638
-12482
-12170
-11858
-11858
-12014
-12638
-12326
-12482
-12170
-12482
-12638
-13262
-13106
-12638
-12482
-12638
-12638
-12950
-12482
-12170
-11858
-12014
-12326
-12638
-12170
-11546
-11546
-11546
-12014
-11546
-11078
-10766
-10610
-10454
-10610
-11078
-10454
-10142
-9674
-9518
-9518
-9986
-9830
-9674
-9518
-9518
-10298
-10142
-10766
-10142
-9830
-9830
-9518
-9674
-9674
-9362
-9518
-9518
-9830
-9986
-10142
-9830
-9518
-9830
-10142
-10142
-10298
-9830
-9830
-9674
-10298
-10610
-10454
-10298
-10766
-11078
-11390
-11546
-10766
-10610
-10610
-10766
-11234
-11390
-11234
-11234
-10766
-11078
-11390
-10922
-11234
-10922
-10610
-10766
-11078
-11546
-10922
-10922
-10922
-10766
-10922
-11078
-11234
-10766
-11078
-10922
-11234
-11546
-11078
-11078
-10922
-11078
-11234
-12170
-12014
-11234
-11234
-11546
-11546
-12170
-11702
-11546
-10922
-10610
-10766
-11234
-11234
-10922
-10922
-10454
-11234
-11390
-11390
-11234
-11234
-11390
-11702
-12014
-12014
-11390
-11546
-11702
-11546
-11702
-11390
-11078
-11078
-11234
-11390
-11546
-11234
-10922
-10610
-10766
-10610
-10922
-10766
-10922
-11234
-10922
-11234
-11546
-11234
-11234
-11078
-11234
-11702
-11702
-11546
-10922
-11078
-11234
-11390
-11702
-11546
-11390
-11234
-11078
-11234
-11234
-10922
-10610
-10766
-10766
-11078
-11234
-11234
-11390
-10766
-11078
-10922
-11234
-11078
-11234
-10766
-10454
-10298
-10298
-9674
-9518
-9362
-9518
-9205
-9518
-8893
-8581
-8269
-7957
-7957
-8113
-8269
-7957
-7957
-8113
-8737
-9049
-8737
-8425
-7957
-8581
-9049
-9986
-9362
-9205
-8425
-8269
-8425
-8893
-9362
-9674
-9830
-9986
-10922
-11546
-11390
-11390
-11390
-11546
-11546
-11546
-11858
-11234
-11702
-11702
-12482
-13106
-12638
-12482
-12014
-11858
-12482
-12950
-12638
-12326
-12326
-12326
-12794
-13418
-13730
-14199
-15291
-15135
-16227
-17787
-17943
-16383
-13106
-9518
-5929
-624
6865
15135
22312
26369
27617
24653
17475
7021
-2184
-8893
-13262
-15603
-17163
-16695
-15603
-14511
-14043
-14043
-13574
-13106
-12794
-12794
-12950
-13106
-13262
-13106
-13418
-13418
-13730
-14043
-14043
-13418
-13418
-13418
-13886
-13886
-13730
-13262
-13418
-13418
-13262
-13886
-13886
-13418
-13574
-13574
-13886
-13886
-13574
-13418
-13262
-13418
-13418
-13730
-13106
-13418
-13262
-13418
-13730
-13730
-13418
-13418
-12950
-13262
-13418
-14199
-13886
-13886
-13418
-13418
-13730
-13730
-13574
-13418
-12950
-12950
-13262
-13262
-13106
-12638
-12638
-12950
-12950
-13262
-13418
-12638
-12638
-12638
-12638
-13418
-12950
-12794
-12950
-13418
-13886
-14511
-14355
-14043
-14199
-14355
-14511
-15135
-15447
-14823
-15291
-15603
-15447
-16071
-15603
-15135
-15291
-15135
-15603
-15603
-15291
-14979
-14355
-14355
-14667
-14511
-13730
-13418
-13262
-12794
-12794
-12482
-12170
-11858
-11078
-10922
-11078
-10922
-10610
-10298
-10142
-9518
-9986
-9830
-9518
-9362
-9518
-9518
-9674
-10298
-9674
-9830
-9830
-9986
-10142
-10142
-10142
-9674
-9674
-9830
-10142
-10298
-10142
-10142
-9830
-9986
-10298
-10454
-10298
-9830
-9986
-9986
-10454
-10454
-10142
-10142
-9986
-9986
-10142
-10922
-10766
-10766
-10454
-10766
-11078
-11078
-11078
-10766
-10454
-10454
-10766
-11078
-10610
-10454
-10298
-10454
-10766
-10922
-10922
-10610
-10454
-10298
-11234
-11078
-10766
-10454
-10766
-10922
-11234
-11858
-11546
-10766
-10766
-10922
-11078
-11390
-11234
-10766
-10766
-10922
-11234
-11234
-10922
-11078
-10610
-10766
-11078
-11078
-11078
-10610
-10610
-10766
-11390
-11546
-10922
-10298
-9986
-9830
-9205
-9518
-9205
-9362
-8893
-8581
-8113
-8581
-8269
-8113
-7801
-7645
-7957
-8269
-8113
-8113
-7801
-8113
-8737
-8737
-8581
-8893
-8737
-7957
-7645
-7645
-8113
-8893
-9049
-9362
-9986
-10454
-11078
-10922
-11078
-11078
-11702
-12014
-11858
-11234
-10922
-11234
-11390
-11546
-11546
-11390
-11234
-11390
-11546
-12014
-12014
-11390
-11234
-11858
-12014
-12326
-12326
-12014
-11858
-12326
-13262
-14511
-15603
-16071
-16539
-17475
-18255
-16539
-12794
-7957
-3276
3276
11078
18724
25277
27773
25901
18099
5773
-6397
-14043
-16383
-15447
-14511
-13574
-12950
-12950
-12950
-12482
-12326
-12638
-13262
-13574
-12950
-12950
-12950
-12950
-13418
-13106
-12794
-12638
-13106
-12794
-13106
-12482
-12326
-12014
-12482
-12482
-12482
-12482
-12326
-12482
-12482
-12482
-12794
-12326
-12794
-12482
-12326
-12638
-12794
-12950
-12638
-12482
-12326
-12638
-12950
-12638
-12950
-12794
-12638
-12638
-12794
-12638
-12482
-12326
-12638
-12638
-12482
-12326
-12170
-12326
-12170
-12326
-13106
-12950
-12638
-12482
-12482
-12950
-13106
-12794
-12326
-12482
-12638
-12950
-13574
-12950
-12950
-12482
-12638
-13106
-13418
-13262
-12794
-12794
-12638
-12950
-13262
-13262
-13106
-12794
-12794
-13106
-13418
-13262
-13106
-12638
-12950
-12794
-12794
-12014
-11546
-11234
-10922
-10922
-10922
-10454
-9986
-9518
-9830
-9830
-9986
-9518
-9518
-9205
-9049
-9205
-9205
-8893
-8893
-8425
-8737
-8737
-9205
-8737
-8893
-8581
-8893
-9205
-9518
-9205
-8893
-8893
-9049
-9362
-9674
-9205
-9362
-9049
-8893
-9518
-9674
-9362
-9205
-9518
-9362
-9518
-9986
-9986
-9674
-9362
-9674
-9986
-10610
-10298
-9674
-9830
-10142
-10142
-10766
-10298
-9986
-9986
-10454
-10454
-11078
-10610
-9986
-9830
-10298
-10610
-10610
-10922
-10298
-10298
-10610
-10922
-11078
-10766
-10454
-10454
-10610
-10610
-10766
-10454
-10454
-10142
-10142
-10454
-10610
-10610
-9986
-9830
-9986
-10454
-10454
-9986
-10142
-9830
-9986
-9986
-10766
-10454
-9986
-9674
-9986
-9986
-10610
-10298
-9986
-9674
-9674
-9674
-9205
-8737
-7957
-7801
-7801
-7957
-8113
-7489
-6865
-7177
-7177
-6709
-6865
-7021
-7177
-7177
-7333
-7645
-7957
-7489
-7333
-7645
-7333
-7177
-6865
-6085
-6865
-7645
-8113
-8425
-9049
-9362
-9518
-9518
-9986
-10298
-10922
-10922
-10454
-10454
-10454
-10610
-10922
-10922
-10766
-10454
-10766
-11078
-11546
-10922
-10766
-10454
-10454
-10454
-11078
-11078
-10766
-11078
-12326
-14043
-14979
-15759
-16383
-17007
-15603
-12326
-7957
-2184
4524
13262
21376
27305
28866
24809
14667
624
-10142
-14667
-15135
-12794
-11390
-11078
-11390
-11858
-12014
-11858
-11546
-11546
-11702
-12014
-12326
-12014
-11858
-12014
-11702
-12170
-12638
-12638
-12170
-12014
-12014
-12170
-12794
-12482
-12170
-12014
-12014
-12326
-12170
-12326
-11858
-11702
-11858
-12014
-12482
-12014
-11858
-11702
-11858
-12326
-12326
-12014
-11702
-11546
-11390
-12014
-12326
-12014
-12014
-11546
-11702
-11546
-11702
-11702
-11546
-11078
-11390
-11858
-11702
-11546
-11858
-11390
-11546
-11702
-12170
-11858
-11702
-11858
-11546
-11702
-11858
-12014
-12014
-11546
-11702
-11702
-11858
-11858
-11858
-11858
-11702
-12170
-12326
-12014
-12014
-11702
-11702
-12014
-12014
-12170
-11546
-11390
-11390
-11702
-12014
-10922
-10766
-10142
-10142
-10298
-10142
-10142
-9830
-9830
-9830
-9362
-9362
-8893
-8425
-8269
-8113
-8581
-8893
-8269
-7957
-7801
-8425
-8737
-8893
-8893
-8737
-8425
-8425
-8425
-8893
-8737
-8581
-8425
-8269
-8581
-9049
-8893
-8893
-8581
-8425
-8737
-9205
-8737
-8425
-8425
-8581
-8893
-9362
-9205
-9049
-9205
-9362
-9049
-9518
-9205
-9049
-9205
-9049
-9674
-9986
-9830
-9830
-9362
-9518
-9830
-10298
-9986
-9518
-9830
-9518
-9830
-10142
-9674
-9205
-9362
-9518
-9674
-10142
-9830
-9830
-9518
-9518
-10142
-9986
-9986
-9674
-9518
-9986
-9986
-9986
-9674
-9518
-9049
-8893
-9049
-9518
-9674
-9362
-9362
-9674
-9830
-9830
-9674
-9205
-9362
-9205
-9830
-9674
-9049
-8269
-7489
-7957
-7489
-7801
-7021
-7021
-6709
-6553
-6241
-6085
-6085
-5617
-5461
-5617
-6397
-6709
-6553
-6553
-6553
-6553
-6709
-7021
-6553
-5617
-5305
-5773
-7489
-7957
-7957
-8425
-8581
-8893
-9362
-9362
-9830
-9518
-9362
-9205
-9362
-9830
-9674
-9674
-9362
-9362
-9518
-9830
-10142
-9986
-9986
-9986
-10142
-10610
-10454
-10142
-9830
-9986
-10766
-11546
-12326
-13262
-13886
-14511
-15915
-16539
-15135
-11546
-7333
-2808
3276
11702
20440
25589
26993
22936
14043
1872
-8425
-13418
-14355
-12950
-12014
-11390
-11078
-11078
-10766
-10922
-10922
-11234
-10766
-10610
-10610
-10454
-10454
-11078
-10766
-10610
-10454
-10610
-10922
-11390
-11234
-11390
-10922
-10766
-11390
-11234
-10922
-11078
-10922
-11078
-10922
-11234
-10454
-10454
-10298
-10610
-10922
-10922
-10766
-10454
-10766
-11078
-11078
-11546
-11078
-10922
-10766
-11390
-11390
-11546
-11390
-11078
-10766
-10766
-10766
-10610
-10454
-10142
-10454
-10766
-10922
-10922
-11078
-11078
-11234
-10922
-11234
-11390
-10766
-10766
-10298
-10922
-10766
-11078
-10922
-10610
-10454
-10922
-11390
-11858
-12014
-11078
-11234
-11078
-11546
-12014
-11546
-11546
-10922
-10766
-11390
-11390
-11234
-10766
-10298
-10298
-10298
-10454
-9830
-9674
-8893
-9049
-9049
-9362
-8737
-8581
-8113
-8113
-8425
-8269
-7957
-7801
-7645
-7645
-7957
-8269
-8113
-7957
-7489
-7801
-7957
-8581
-8581
-8269
-8425
-8581
-8737
-9049
-8737
-8581
-8425
-8425
-8737
-9049
-8737
-8893
-8581
-9049
-8737
-9049
-8737
-8893
-8581
-8737
-9205
-9518
-9362
-9362
-9518
-9830
-9986
-9674
-9674
-9362
-9674
-9674
-9986
-10142
-9674
-9986
-9674
-9674
-9830
-10142
-9830
-9518
-9830
-9674
-9986
-10142
-10142
-9986
-9518
-9518
-9362
-9830
-9362
-9674
-9830
-9518
-9674
-9986
-9674
-9362
-9205
-9362
-9830
-10142
-10142
-9518
-9674
-9049
-9830
-10142
-9986
-9049
-8737
-8113
-8113
-8269
-8113
-7801
-7177
-6865
-6865
-7333
-6865
-6397
-6397
-6553
-6553
-7177
-7489
-7177
-7021
-7333
-7801
-8269
-8113
-7645
-6709
-6709
-7645
-8737
-8581
-8581
-9205
-9674
-10142
-10610
-10610
-10142
-9830
-9674
-9830
-10298
-10298
-10142
-10142
-10454
-10766
-10922
-10922
-10922
-10766
-10922
-11390
-11234
-10922
-11078
-10766
-10766
-10922
-11390
-11858
-12638
-13262
-13730
-14667
-16227
-16851
-15291
-12170
-8113
-3588
2652
11234
19192
24341
26057
22468
12794
936
-7957
-12950
-14667
-14511
-13574
-12326
-11702
-11546
-11702
-11702
-12170
-12482
-11858
-12014
-12014
-12014
-12014
-11546
-11546
-11234
-11858
-11858
-12014
-11546
-11546
-11390
-11702
-12014
-12170
-12170
-12014
-12014
-12326
-12170
-12482
-12638
-12170
-12326
-12170
-12638
-12638
-12482
-11702
-11858
-12170
-12326
-12326
-12170
-12170
-12014
-12638
-12482
-12638
-12326
-12170
-12326
-12170
-12482
-12638
-12638
-12170
-12170
-12326
-12482
-12482
-12326
-11858
-11546
-11858
-12014
-12326
-12170
-11858
-11858
-12014
-12170
-12170
-12482
-12482
-12638
-12950
-13106
-13418
-13418
-13262
-13106
-13418
-13886
-14511
-14199
-13730
-13262
-13574
-14043
-13730
-13886
-13262
-13262
-13262
-13418
-13418
-12950
-12950
-12014
-11702
-12014
-11546
-11234
-10922
-10454
-10454
-10142
-9986
-10142
-9518
-9205
-9362
-9049
-9205
-9049
-9049
-8893
-8893
-8893
-9049
-9049
-8893
-8425
-8425
-8737
-9049
-8893
-8581
-8581
-8581
-9049
-9518
-9518
-9362
-8737
-9049
-9518
-9830
-9674
-9205
-9049
-9362
-9518
-9518
-9674
-9362
-9205
-9518
-9518
-9830
-9674
-9674
-9205
-9362
-9518
-9674
-9518
-9518
-9205
-9362
-9830
-10142
-9986
-9986
-9830
-9674
-10142
-10454
-10298
-9986
-9986
-9674
-10298
-10298
-10142
-9674
-9518
-9518
-9986
-10298
-10142
-9362
-9674
-9518
-9830
-10298
-10298
-10298
-9986
-10142
-10142
-10454
-10142
-9830
-9674
-9830
-9986
-10142
-9830
-9674
-9518
-9674
-9830
-9986
-9830
-9674
-9205
-9205
-9518
-9674
-9362
-8737
-8581
-8269
-8581
-8581
-8113
-7489
-7489
-7333
-7489
-7333
-7021
-6709
-6397
-6397
-6553
-6709
-6865
-6865
-6709
-6865
-6865
-7177
-7177
-7489
-6553
-6865
-7177
-7957
-7333
-6553
-5929
-6397
-7021
-8113
-8581
-8737
-8893
-9518
-9986
-9830
-10454
-10142
-10454
-9986
-10142
-9986
-10142
-10142
-9674
-9518
-9986
-9986
-10298
-9986
-9986
-10298
-10298
-11234
-11078
-10298
-10142
-10142
-10454
-10922
-10610
-10766
-11078
-12014
-13262
-14043
-14667
-15135
-15915
-16071
-14199
-10142
-5149
312
7801
16071
23092
27617
29178
26057
16383
3744
-7177
-13262
-14199
-13106
-11858
-11234
-11390
-11702
-11858
-11078
-11078
-11546
-11702
-12014
-11858
-11390
-11546
-11546
-11390
-11858
-11546
-11702
-11390
-11546
-11858
-11702
-11390
-11234
-11234
-11078
-11078
-11546
-11390
-11078
-10922
-10922
-10922
-11234
-11234
-11234
-10922
-11078
-11390
-11546
-11234
-10922
-11078
-10922
-11078
-11546
-11702
-11234
-10922
-10766
-10922
-11546
-11546
-11078
-10922
-10766
-11234
-11546
-11390
-11234
-10922
-11078
-11390
-11390
-11546
-11390
-10922
-10922
-11234
-11234
-11078
-10766
-10922
-10766
-11078
-11546
-11390
-11078
-11234
-11390
-11390
-11858
-12014
-11702
-11546
-11702
-12014
-12326
-11702
-12014
-11858
-11546
-12014
-12014
-11858
-11546
-11234
-10922
-10454
-10298
-9830
-9205
-9049
-9049
-8893
-9049
-8737
-8737
-8113
-7957
-8425
-8581
-8113
-7801
-7645
-7801
-8113
-8269
-7645
-7333
-7645
-7489
-7801
-8269
-7801
-7801
-7801
-7801
-7957
-8269
-8113
-7489
-7801
-7645
-7801
-8425
-8269
-8425
-8269
-8269
-8581
-8893
-8581
-8269
-8425
-8425
-8737
-8893
-8893
-8737
-8893
-8737
-8893
-9362
-9049
-8893
-8425
-8737
-9205
-9049
-9049
-9205
-9049
-8893
-9518
-9830
-9674
-9674
-9049
-9205
-9674
-9986
-9830
-9674
-9362
-9362
-9830
-9986
-9830
-9986
-9049
-9362
-9362
-9830
-9674
-9362
-9362
-9049
-9674
-10142
-9830
-9518
-9518
-9518
-9830
-10142
-9986
-9674
-9362
-9205
-9830
-9986
-9518
-9362
-9049
-9205
-9205
-9674
-9205
-9205
-8893
-9205
-9205
-9674
-9362
-8893
-8737
-8581
-8737
-8269
-7645
-7177
-7489
-7489
-7489
-7645
-6865
-6865
-6709
-6241
-6241
-6553
-6397
-6085
-6397
-6553
-6709
-7021
-7021
-6241
-6241
-6553
-7021
-6865
-6085
-5617
-5461
-6397
-7645
-8269
-8581
-8737
-8893
-9362
-9674
-10142
-9986
-10142
-9674
-10142
-10298
-10610
-10454
-10298
-10142
-9986
-10610
-10766
-10610
-10298
-10454
-10298
-10610
-10610
-10454
-10454
-10298
-10454
-10766
-11702
-12326
-13418
-13730
-14043
-14043
-14823
-14979
-15915
-17163
-17943
-17007
-15291
-11702
-7801
-3744
1872
8893
16383
23092
26837
27773
22780
13262
468
-8893
-13574
-14043
-13574
-12014
-11858
-11546
-11546
-11546
-11234
-11234
-11546
-12014
-11390
-11234
-11390
-11390
-11702
-12014
-11234
-11390
-11078
-11702
-11858
-11702
-11078
-11078
-11234
-11390
-11858
-11546
-11078
-10922
-11078
-11390
-11858
-11390
-11078
-11078
-11390
-12014
-12170
-11702
-11078
-11390
-11234
-11078
-11390
-11390
-11078
-10766
-10766
-11390
-11234
-11702
-11078
-11234
-11390
-11390
-11546
-11234
-11078
-11234
-11390
-12014
-11858
-11390
-11078
-10454
-11234
-11234
-12014
-11858
-11702
-11234
-11234
-11390
-11702
-11390
-11078
-11234
-10922
-11234
-11546
-11546
-11390
-11546
-11858
-12170
-12014
-11858
-11546
-11546
-11390
-11390
-12170
-11702
-11546
-11078
-11390
-11234
-11546
-10922
-10610
-10142
-9986
-9830
-10142
-9674
-9205
-8893
-9049
-9049
-8581
-8425
-8269
-8113
-8113
-8581
-8581
-8893
-8113
-8113
-8269
-8425
-8737
-8581
-7957
-7957
-7645
-7957
-8113
-7957
-7957
-8113
-8269
-8737
-9205
-9049
-8581
-8737
-8737
-8737
-8893
-8893
-8737
-8425
-8893
-9362
-9674
-9362
-9049
-8737
-9362
-9049
-9674
-9362
-9205
-9049
-8893
-9205
-10142
-9830
-9674
-9518
-9362
-9830
-10298
-9986
-9986
-9830
-9986
-10142
-10454
-10298
-10142
-9674
-9830
-9830
-10454
-9986
-9674
-9830
-9674
-9986
-10454
-10142
-10142
-9830
-9674
-9986
-10298
-9986
-9986
-9674
-10298
-10298
-10766
-10610
-10298
-9986
-9830
-10454
-10454
-10298
-9674
-9674
-9830
-10298
-9986
-9830
-9362
-8893
-8737
-8269
-8113
-8269
-8113
-7957
-8113
-7801
-7957
-7489
-7177
-6397
-6553
-7021
-7333
-7021
-7021
-7177
-7021
-7489
-7489
-7177
-7333
-7801
-7801
-7957
-7333
-6865
-6397
-6709
-7489
-8269
-8737
-8737
-8425
-8425
-9049
-9986
-10454
-10610
-10298
-10298
-10454
-10922
-11234
-10922
-10922
-10766
-10922
-11078
-11390
-11234
-11078
-10922
-10610
-11234
-11546
-11546
-11078
-10766
-10922
-11546
-12014
-12794
-13730
-14355
-15291
-16851
-17631
-17163
-15135
-11390
-7957
-3900
2808
11234
18724
23405
24809
21844
13730
2964
-5773
-11546
-14667
-15291
-14667
-13730
-13262
-12794
-12794
-12794
-13106
-12482
-12326
-12638
-12794
-12638
-13106
-12326
-12326
-12170
-12326
-12326
-12794
-12482
-12482
-12794
-12482
-12638
-12794
-12794
-12482
-12170
-12170
-12482
-12482
-12326
-12170
-12014
-12170
-12794
-12794
-12794
-12950
-12794
-12638
-13106
-13106
-13106
-12950
-12794
-12950
-13262
-13262
-13106
-13262
-13106
-12794
-12794
-12950
-12794
-12794
-12482
-12638
-12638
-13262
-13106
-12794
-12482
-12638
-12950
-13106
-12794
-12794
-12482
-12794
-12950
-13106
-12794
-12482
-12170
-12482
-12950
-13106
-12950
-12950
-12482
-12950
-13418
-14043
-13730
-13730
-13574
-13574
-13730
-14043
-13574
-13730
-13418
-13730
-13886
-13886
-13730
-13574
-13106
-12950
-12794
-12638
-11858
-11702
-11546
-11546
-11546
-11234
-11078
-10142
-9518
-9674
-9986
-10142
-10142
-9830
-9362
-9518
-9986
-10298
-10298
-9674
-9674
-9674
-9518
-9674
-9986
-9518
-9362
-9362
-9518
-9986
-9986
-9830
-9830
-9674
-10298
-10454
-10454
-9986
-9830
-9830
-10142
-10298
-10454
-9986
-9362
-9362
-9986
-9986
-10298
-9986
-9986
-10142
-10610
-11078
-10766
-10922
-10766
-10766
-11234
-11234
-10766
-10610
-10610
-11078
-10922
-10922
-11078
-10610
-10454
-10610
-10922
-11078
-11078
-11078
-10766
-10766
-10922
-11234
-11390
-11390
-10922
-10922
-11234
-11546
-11234
-10922
-10454
-10922
-10922
-10766
-10610
-10610
-10610
-10610
-10766
-10922
-11234
-10922
-10454
-10766
-10922
-10922
-11078
-10610
-10454
-10298
-10610
-11078
-11078
-10298
-9830
-9830
-9830
-9986
-9362
-9362
-8737
-8269
-8737
-8893
-8269
-7333
-7177
-7177
-7645
-7957
-7801
-7645
-7801
-7957
-8269
-8425
-9049
-8737
-8581
-8113
-7957
-8113
-8581
-9205
-9362
-9518
-10454
-11078
-10922
-10922
-10922
-11078
-11546
-11546
-11234
-11390
-11078
-11390
-11702
-12014
-11858
-11702
-11078
-11546
-12014
-12170
-12170
-11546
-11234
-11546
-11858
-12014
-11858
-11702
-11546
-11858
-12638
-13886
-14511
-14979
-15135
-16383
-17319
-16695
-14043
-10142
-5773
-780
5773
13418
20596
25433
26525
23405
15135
3432
-6553
-12170
-14355
-15135
-14667
-14043
-13262
-12950
-12638
-12950
-12950
-13106
-12482
-12326
-12014
-12326
-12482
-13106
-12794
-12482
-12482
-12638
-12638
-13574
-13106
-12794
-12638
-12950
-13418
-13730
-13574
-12950
-13106
-13418
-12950
-13418
-13262
-13106
-13106
-12950
-13262
-13262
-13106
-12794
-12794
-12794
-13106
-13418
-13106
-12950
-12326
-12638
-12950
-13418
-13106
-13106
-12950
-13106
-13262
-13730
-13418
-13262
-12950
-13106
-13262
-13730
-13418
-13418
-13262
-13106
-12950
-13262
-13418
-13262
-12950
-12638
-12638
-13262
-12950
-13106
-13106
-13106
-13574
-13574
-13730
-13106
-13418
-14043
-14199
-14511
-14511
-14511
-14511
-14511
-14667
-15291
-15135
-14355
-14199
-14355
-14199
-14199
-13730
-13262
-12950
-12482
-12638
-12482
-12014
-11390
-11390
-11234
-11546
-11702
-11078
-10610
-10298
-10298
-10298
-10610
-10454
-9986
-9518
-9830
-9986
-9986
-9986
-9830
-9674
-9674
-9830
-10298
-9986
-9986
-9674
-9986
-10298
-10610
-10298
-10142
-10142
-9986
-10610
-10922
-10610
-9986
-9830
-10142
-10610
-10766
-10766
-10610
-10298
-10454
-10766
-11234
-11078
-10610
-10298
-10454
-10766
-11390
-11546
-10922
-10610
-10454
-11234
-11078
-10610
-10454
-10454
-9986
-10454
-11078
-10922
-10766
-10610
-10454
-10922
-11546
-11234
-11078
-10922
-10766
-11390
-11234
-11234
-10922
-10766
-11078
-11078
-11390
-11234
-10766
-10766
-10922
-11078
-11234
-11078
-10922
-10454
-10454
-11078
-10766
-10610
-10298
-10610
-10766
-10922
-11078
-10922
-10454
-10298
-10298
-10298
-10298
-9518
-8893
-8581
-8737
-8893
-9049
-8581
-8113
-7645
-7489
-7489
-7489
-7333
-7021
-6865
-7177
-7489
-7957
-7957
-7489
-7489
-7801
-8425
-8425
-7489
-7177
-7021
-8269
-9205
-9518
-10142
-9830
-10142
-10298
-10766
-11234
-11390
-11078
-10766
-10610
-10454
-11234
-11078
-10766
-10454
-11078
-10922
-11702
-11702
-11390
-11390
-10922
-11546
-11858
-11390
-11546
-11078
-11546
-11858
-12014
-12014
-12482
-13418
-14511
-15135
-16227
-17319
-16383
-13574
-9518
-4837
312
8113
16695
23717
27773
28242
22000
11234
-936
-9986
-14199
-14823
-13730
-12326
-11858
-11858
-12014
-12326
-12482
-12638
-12326
-12794
-12170
-12326
-12638
-12638
-12326
-12014
-12014
-12638
-12638
-12482
-12014
-11858
-12014
-12638
-12794
-12482
-12326
-12014
-12326
-12794
-12638
-12638
-12326
-12170
-12326
-12326
-12638
-12794
-12482
-12014
-12326
-12482
-12326
-12014
-12014
-11702
-11702
-11858
-12326
-12014
-12170
-12014
-11858
-12170
-12482
-12482
-12170
-11390
-11702
-12014
-12482
-12482
-12170
-11858
-11702
-12014
-12326
-11858
-11546
-11390
-11390
-11702
-12014
-11702
-11702
-11390
-11546
-11702
-12482
-12326
-12638
-11546
-12014
-12482
-12794
-12482
-12326
-11702
-11858
-12014
-12638
-12014
-11702
-11546
-11390
-11390
-10922
-11078
-9986
-9674
-9674
-9518
-9674
-9049
-8737
-8737
-8425
-8737
-8893
-8737
-8893
-8269
-8425
-8581
-9049
-9049
-8581
-8581
-8425
-8581
-9049
-8893
-8893
-8113
-8113
-8581
-8893
-8581
-8269
-8425
-8737
-9049
-9205
-9362
-8737
-8737
-8581
-9049
-9362
-9518
-8893
-8893
-8893
-9205
-9362
-9362
-9205
-8737
-9205
-9049
-9518
-9518
-9362
-8893
-8893
-9674
-9830
-9518
-9518
-9205
-9362
-9986
-10454
-9986
-9986
-9674
-9830
-9674
-10298
-9986
-9674
-9518
-9518
-9830
-9830
-9830
-9518
-9518
-9362
-9674
-9674
-9674
-9674
-9205
-9362
-10142
-10142
-10298
-9986
-9674
-9518
-9830
-10298
-9986
-9674
-9518
-9362
-9205
-9986
-9674
-9362
-8581
-8425
-8113
-7801
-7333
-7177
-7021
-7177
-7177
-7489
-7177
-7021
-6397
-6397
-6241
-6553
-6085
-6241
-5929
-6241
-6553
-7021
-7021
-6865
-6865
-6865
-7177
-7801
-7645
-7177
-6397
-5773
-6085
-7021
-7801
-7957
-8269
-8581
-9518
-9986
-10142
-10142
-10298
-10298
-10142
-10454
-10610
-10454
-9986
-10454
-10766
-11078
-10922
-11078
-10922
-10766
-10610
-11078
-10922
-10610
-10610
-10610
-11078
-12482
-13574
-14199
-14667
-15603
-16851
-17007
-14511
-11078
-6553
-1092
5773
13574
21064
25589
25745
19972
9986
-2184
-10610
-13886
-13886
-12794
-11858
-11702
-11702
-11546
-11390
-11234
-11546
-11702
-11546
-11234
-10922
-11078
-11390
-11858
-11858
-11546
-11390
-11390
-11858
-12014
-12170
-11858
-11702
-11702
-11858
-12170
-11858
-11702
-11546
-11390
-11702
-12014
-11390
-11234
-10922
-11078
-11078
-11546
-11390
-10922
-11234
-11390
-11390
-11702
-11702
-11078
-11078
-11546
-11702
-11858
-12014
-11546
-11546
-11234
-11546
-11702
-11390
-11078
-10766
-11234
-11078
-11390
-11234
-10766
-10454
-10454
-11078
-11078
-10922
-10610
-10922
-10922
-11078
-11390
-11234
-11390
-11390
-11390
-11546
-11702
-11858
-11390
-10922
-11234
-11390
-11858
-11702
-11546
-11234
-11390
-11702
-11858
-11702
-11234
-11078
-11078
-11078
-10922
-10922
-10610
-10298
-10142
-10454
-10454
-10298
-9674
-9362
-9205
-9518
-9674
-8893
-8893
-8269
-8425
-8893
-9049
-8581
-8425
-7957
-8269
-8269
-8581
-8425
-8113
-7801
-8113
-8425
-8737
-9049
-9049
-8737
-8737
-9049
-9518
-9362
-9362
-9205
-9362
-9049
-9362
-9674
-9674
-9205
-9205
-9362
-9986
-9830
-9830
-9362
-9674
-9518
-9830
-9518
-9518
-9518
-9362
-9518
-9674
-9830
-9830
-9830
-9986
-10454
-10766
-10454
-9674
-10142
-9986
-10298
-10142
-10142
-9986
-9986
-9830
-10142
-10766
-10454
-10142
-10142
-10298
-10454
-10610
-10454
-10142
-9986
-9830
-10454
-10766
-10454
-10142
-10142
-9986
-10142
-10454
-9986
-9986
-9674
-9674
-9986
-10298
-10610
-10142
-9518
-9518
-9049
-9049
-8425
-8269
-8269
-8113
-8113
-8425
-8581
-8113
-7645
-7333
-7177
-7645
-7489
-7177
-7489
-7021
-7489
-7645
-7489
-6865
-6865
-7177
-7645
-7957
-7489
-6709
-7021
-7957
-8893
-9674
-9674
-10298
-10454
-10922
-10922
-11234
-11078
-10610
-10610
-10454
-10922
-11234
-11234
-10766
-10766
-10922
-10922
-11234
-10922
-10922
-10766
-11078
-11078
-11546
-11702
-12170
-13262
-14199
-14823
-15603
-16851
-17787
-15915
-12950
-10454
-8113
-4681
-156
6397
14667
21220
25745
28866
30270
27617
21532
12950
3276
-4681
-10766
-13574
-14511
-14199
-13262
-12950
-12326
-11702
-11546
-12326
-12482
-12482
-12794
-12482
-12638
-12482
-12638
-12326
-12170
-11858
-12014
-12638
-13106
-12638
-12482
-12170
-11858
-12326
-12326
-12482
-12170
-12794
-12638
-12794
-12794
-12326
-12014
-12326
-12638
-13106
-13574
-12950
-12638
-12794
-12482
-12794
-12950
-12794
-12482
-12638
-12170
-12170
-12482
-12170
-12170
-12170
-12326
-13106
-13106
-12950
-12794
-12326
-12326
-12482
-12950
-12950
-12482
-12482
-12014
-12170
-12794
-12326
-12170
-11858
-11702
-12170
-12638
-13106
-12950
-12950
-12950
-13574
-14511
-14199
-14511
-14355
-13886
-14199
-14511
-14823
-14199
-14355
-14043
-14199
-14667
-14199
-13730
-13106
-12950
-13106
-12794
-12794
-11546
-11234
-10922
-10922
-10766
-10454
-9986
-9362
-9986
-9830
-10610
-10142
-9362
-9362
-9362
-9674
-10298
-9674
-9518
-9362
-9518
-9830
-10298
-9674
-9518
-9674
-9518
-9674
-9674
-9674
-9362
-9518
-9674
-9674
-9986
-9830
-10298
-9830
-9986
-10610
-10610
-10454
-10298
-9986
-9986
-10142
-10922
-10610
-10454
-10454
-10766
-10922
-11234
-11234
-10766
-10454
-10454
-10454
-10766
-10454
-10454
-10298
-10454
-10454
-10922
-10766
-11078
-10766
-10766
-11078
-11390
-11234
-11078
-10766
-10766
-10766
-11234
-10766
-10610
-10454
-10610
-10766
-11546
-11546
-11234
-10610
-10922
-11390
-11078
-10922
-10610
-10610
-11078
-11078
-10922
-10922
-10454
-10610
-10610
-10298
-10922
-9830
-9362
-9049
-8581
-8737
-8893
-8581
-8425
-7957
-7489
-7801
-7957
-7489
-7021
-7021
-7489
-7957
-8113
-8581
-8113
-7645
-7957
-8269
-8737
-8425
-7801
-7333
-7177
-7645
-8425
-8737
-8737
-9049
-9830
-10454
-11078
-11078
-11078
-11234
-11234
-11702
-11858
-11234
-11078
-10922
-10766
-11546
-11546
-11078
-11078
-10922
-10766
-11078
-11078
-11234
-11078
-11078
-11078
-11234
-11702
-11546
-12170
-13262
-14511
-15291
-16383
-17475
-17475
-15447
-11234
-6865
-1404
5929
14823
22624
27929
27929
22156
10922
-1716
-10922
-14979
-15291
-14511
-12950
-12638
-12326
-12638
-13106
-12326
-12950
-12482
-12170
-12014
-12326
-12638
-12326
-12482
-12170
-12170
-12482
-12950
-12638
-12170
-11858
-11858
-12638
-12170
-12482
-12170
-11858
-11858
-12638
-12482
-12794
-12482
-12326
-12482
-12482
-12638
-12170
-11858
-12014
-12014
-12170
-12638
-12482
-12482
-12170
-12170
-12794
-12794
-12638
-12482
-12794
-12638
-12794
-12950
-12794
-12638
-12326
-12638
-12482
-12482
-12326
-12638
-11858
-12014
-12170
-12794
-12326
-12170
-11858
-12014
-12638
-12638
-12638
-12482
-12794
-12794
-12950
-13574
-13418
-12950
-13106
-13106
-13730
-13730
-13574
-13574
-13574
-13418
-13886
-13886
-13106
-13262
-12794
-12638
-12482
-12794
-11858
-11546
-10922
-10610
-11078
-10766
-10610
-9830
-9986
-9362
-9362
-9830
-9518
-9362
-8737
-9049
-9049
-9362
-9205
-9205
-8737
-8893
-9049
-9205
-8893
-8737
-8581
-8269
-8737
-9205
-8737
-8737
-8581
-9049
-9205
-9674
-9049
-9049
-8581
-8425
-9205
-9830
-9674
-9362
-9205
-9049
-9362
-9830
-9518
-9362
-9049
-9674
-9830
-10298
-9674
-9518
-9205
-9205
-9518
-10142
-9830
-9830
-9674
-9362
-9830
-10454
-10142
-10142
-9830
-9674
-9986
-10454
-10142
-9674
-9518
-9518
-9986
-10142
-9830
-9674
-9362
-9830
-10142
-9986
-9986
-9986
-9674
-9674
-9674
-9830
-9518
-8893
-9205
-9518
-9674
-9830
-9362
-9830
-9518
-9518
-10142
-10142
-9830
-9362
-9205
-9674
-9830
-9986
-9830
-9674
-9205
-8893
-8425
-7801
-7645
-7177
-6865
-7021
-7333
-7177
-6865
-6397
-5929
-5929
-5929
-6397
-6397
-6397
-6553
-6709
-7021
-7177
-7021
-6865
-6865
-7489
-7489
-7177
-6397
-6085
-6085
-6865
-7645
-8581
-8113
-8581
-8893
-9362
-9362
-9674
-9674
-9986
-9986
-10142
-10454
-10766
-10454
-10454
-10298
-10454
-10766
-11234
-10766
-10454
-10766
-10766
-11078
-11234
-11078
-10610
-10610
-10922
-10922
-11078
-11078
-11078
-11546
-13262
-14511
-14979
-15603
-16539
-16695
-15135
-12326
-7957
-2964
2964
10922
19660
26369
29802
30426
25745
14979
1716
-8425
-14199
-15135
-13730
-12638
-11702
-11702
-12170
-11858
-11234
-11078
-10766
-11390
-11702
-11546
-11546
-11078
-11546
-11702
-11858
-12014
-11858
-11858
-11858
-12014
-12326
-12326
-12170
-12014
-11858
-11858
-12326
-12170
-11858
-11546
-11702
-12014
-11858
-11702
-11390
-11234
-11390
-11390
-12014
-11546
-11390
-11078
-12014
-12326
-12326
-12014
-11546
-11858
-11546
-11702
-12170
-12014
-11858
-11546
-11546
-12014
-12014
-11858
-12014
-11546
-11702
-11702
-11858
-11858
-11078
-11234
-11390
-11546
-11858
-11546
-11702
-11234
-11546
-11858
-12014
-11702
-11702
-11546
-11546
-12014
-12482
-12326
-12014
-12326
-11858
-12482
-12482
-12482
-12170
-12170
-12014
-12482
-12482
-12014
-11858
-11858
-12014
-12014
-12638
-12326
-11858
-11546
-11546
-11858
-11390
-11078
-10454
-10142
-9986
-9986
-10298
-9830
-9362
-9205
-8893
-9205
-9049
-8893
-8425
-8113
-8269
-8581
-8737
-8581
-8425
-8425
-8113
-8425
-8737
-8893
-8581
-8269
-8425
-8893
-8893
-8893
-8581
-8737
-8581
-8893
-9205
-9205
-8893
-8737
-8425
-8893
-8581
-9049
-8893
-8737
-9049
-9362
-9674
-9674
-9674
-9362
-9362
-9830
-10142
-9830
-9518
-9674
-9674
-9830
-10298
-10142
-9986
-9986
-9830
-10142
-10298
-10454
-10142
-9986
-9986
-9830
-9986
-9674
-9674
-9362
-9518
-9986
-10610
-10454
-10298
-9986
-10298
-10298
-10454
-10610
-10454
-10142
-10610
-10766
-10610
-10610
-10142
-10610
-10454
-10610
-10922
-10610
-10298
-10298
-10142
-10454
-10610
-10454
-9830
-9830
-9674
-9986
-10298
-9986
-9518
-9674
-9518
-9205
-9986
-9518
-9049
-8893
-8893
-8893
-8893
-8269
-7801
-7801
-7801
-7801
-7801
-7801
-7177
-6709
-7021
-7021
-7177
-7177
-7021
-6709
-6709
-7177
-7801
-7489
-7177
-7177
-7489
-7801
-7957
-6865
-6241
-6241
-7021
-8269
-9049
-9049
-9362
-9674
-10142
-10454
-10610
-10922
-10610
-10610
-10766
-10298
-10922
-10766
-10766
-10610
-10922
-11078
-11078
-11078
-10766
-10610
-10610
-11078
-11234
-11234
-11078
-10766
-10766
-11234
-11546
-11702
-11546
-11858
-13106
-14511
-15135
-16071
-17007
-17943
-17007
-14043
-10142
-6085
-1404
5149
13262
20440
25277
27305
25433
18411
6865
-4681
-11858
-14667
-14511
-13262
-12014
-11702
-12326
-12014
-11702
-11078
-11546
-11234
-11390
-11546
-11546
-11234
-11390
-11702
-11858
-11546
-11546
-11546
-11858
-12014
-12326
-12170
-11858
-11702
-11702
-12326
-12482
-12326
-11546
-11546
-11546
-11390
-12170
-12014
-11702
-11234
-11858
-12170
-12170
-12014
-11702
-11702
-11702
-11858
-12170
-11858
-11390
-11858
-11858
-12014
-12170
-12170
-11858
-11858
-12014
-12326
-12482
-12014
-11858
-11234
-11546
-11702
-11546
-12014
-11546
-11390
-11234
-11390
-11702
-11858
-11390
-11546
-11234
-11546
-12326
-12014
-12014
-12170
-12170
-12170
-12794
-12170
-11858
-12170
-11858
-12326
-12638
-12638
-12326
-12170
-12170
-12794
-12950
-12170
-11858
-12170
-12014
-12170
-12170
-11858
-11234
-11078
-10766
-10610
-10766
-10298
-9986
-9830
-9362
-9518
-9986
-9362
-8581
-8581
-8581
-8581
-8737
-8893
-8581
-8581
-8737
-9205
-9518
-9518
-9362
-9049
-8893
-9205
-9674
-9362
-9362
-9205
-9362
-9518
-9674
-9830
-9518
-9674
-9674
-9830
-9986
-9518
-9049
-8893
-9205
-9362
-9830
-9674
-9830
-9986
-9986
-10298
-10610
-9986
-9674
-9986
-9986
-10298
-10766
-10610
-10298
-10298
-9986
-10298
-10142
-10142
-9986
-9830
-9986
-10298
-10766
-9986
-9830
-9830
-9986
-10142
-10454
-10610
-10298
-10142
-9830
-10454
-10766
-10610
-10142
-9986
-10298
-10766
-10610
-10298
-10610
-10142
-9830
-9674
-10142
-9830
-10298
-9830
-9986
-10142
-10298
-10298
-9830
-9674
-9518
-9674
-9674
-9362
-8893
-8581
-8425
-8425
-8737
-8269
-7957
-7801
-7645
-7801
-7645
-7021
-6709
-6865
-6865
-7177
-7333
-7489
-7489
-7177
-7021
-7489
-8425
-7801
-7957
-7333
-7021
-6709
-7489
-8113
-8581
-8893
-9830
-9986
-10766
-10922
-10922
-11234
-11390
-11078
-11234
-11234
-11234
-10922
-10766
-11078
-11702
-11390
-10922
-10766
-10610
-10454
-11078
-11390
-10922
-10766
-10766
-11078
-11546
-11546
-11390
-11234
-12014
-12950
-14199
-14511
-14355
-14823
-15447
-17319
-18255
-17163
-14355
-10766
-6397
-1248
5929
14199
21220
26213
27461
22624
12482
0
-8737
-13574
-15915
-15135
-14355
-13418
-12638
-12794
-12794
-12950
-12638
-12950
-12326
-12170
-12326
-12638
-12794
-12794
-12326
-12170
-12482
-12482
-12326
-12482
-12014
-12014
-12326
-12794
-13106
-12794
-12482
-12170
-12794
-12950
-13262
-13262
-12638
-12482
-13262
-12950
-12950
-12794
-12638
-12482
-12794
-12638
-12950
-12794
-12482
-12326
-12482
-12638
-12638
-12950
-12638
-12482
-12638
-12794
-13106
-12950
-12482
-12326
-12482
-12950
-13106
-12794
-12482
-12326
-12482
-12950
-12794
-12950
-12950
-12638
-12794
-13106
-13730
-13418
-13418
-13262
-13574
-13574
-13730
-14043
-14043
-14043
-14511
-14667
-15135
-14511
-14199
-14043
-14043
-14667
-15135
-14355
-13886
-13574
-13262
-13418
-13418
-12950
-12014
-11390
-11702
-11234
-11234
-10922
-10454
-10454
-10142
-10454
-10454
-10454
-9674
-9674
-9830
-9830
-9986
-9830
-9205
-9205
-9362
-9518
-10298
-10142
-9830
-10142
-9986
-10298
-10454
-10454
-10298
-9518
-10142
-10142
-10142
-10142
-9674
-9518
-9830
-10142
-10298
-10142
-10142
-10610
-10610
-10610
-10766
-10610
-10142
-10298
-9986
-10142
-10610
-10610
-10454
-10610
-10922
-11078
-11234
-10922
-10766
-10766
-11234
-11078
-11546
-11390
-10922
-11234
-10922
-11234
-11546
-11234
-11078
-10766
-10766
-10922
-10922
-10766
-10454
-10298
-10610
-10766
-10922
-10766
-10766
-10610
-10610
-10766
-11234
-10922
-10766
-10454
-10766
-10766
-11078
-10766
-10454
-10142
-9986
-9518
-9518
-9362
-8893
-8737
-8269
-8581
-8425
-7645
-7489
-7177
-7333
-7177
-7645
-7645
-7489
-7801
-7957
-7957
-8425
-8269
-8269
-8269
-7957
-7801
-7333
-7177
-7801
-8113
-8737
-9518
-10610
-10298
-10454
-10298
-10766
-10922
-11234
-11234
-11234
-11390
-11390
-11078
-11390
-11234
-11234
-11234
-11078
-11702
-11702
-11390
-11234
-11546
-11234
-11858
-12170
-12014
-12014
-11390
-11702
-11702
-12482
-12326
-13418
-14355
-14979
-15915
-17787
-18255
-16071
-12014
-7489
-2652
3900
12638
21064
26993
29178
26213
17319
4368
-6241
-12638
-15135
-15135
-14043
-12014
-12014
-12014
-12170
-12014
-12326
-12170
-12014
-12014
-12170
-12326
-12170
-12170
-12326
-11858
-12014
-12170
-12638
-12482
-12326
-12170
-12170
-12170
-12638
-11702
-12170
-11858
-12170
-12014
-12170
-12014
-11546
-11390
-11390
-11858
-12170
-12170
-12014
-11702
-11858
-12170
-12170
-12326
-11702
-12014
-12014
-12482
-12170
-12014
-12014
-11702
-11858
-12326
-12638
-12014
-11858
-11702
-11858
-11858
-12170
-12170
-11858
-11078
-11078
-11546
-12014
-11702
-12014
-11702
-12170
-12170
-12482
-12482
-12014
-12170
-12170
-12638
-12950
-12638
-12638
-12638
-12794
-13262
-13418
-13106
-12638
-12794
-12794
-12794
-12794
-12482
-12014
-11546
-11702
-11234
-11390
-11078
-10454
-9830
-9830
-9674
-9830
-9205
-9049
-8425
-8893
-9049
-9049
-8737
-8581
-7957
-8425
-8581
-8581
-8737
-7957
-7645
-8113
-7957
-8269
-8113
-8113
-7489
-7801
-8113
-8581
-8269
-8113
-8113
-8893
-8893
-8737
-8893
-8893
-8269
-8737
-8581
-9205
-9205
-8737
-8581
-8737
-8893
-9674
-9518
-8737
-9049
-8893
-9049
-9362
-9674
-9205
-9205
-9049
-9830
-9674
-9674
-9830
-9518
-9674
-9986
-10142
-9674
-9518
-9674
-9518
-9830
-9830
-9518
-9518
-9362
-9362
-9830
-9986
-9518
-9205
-9362
-9518
-9362
-9986
-9674
-9518
-9205
-9362
-9674
-10142
-9830
-9830
-9362
-9362
-9674
-9986
-9830
-9518
-9362
-9362
-9362
-9362
-8893
-8113
-7645
-7489
-7645
-7801
-7489
-7645
-7177
-6865
-7177
-7333
-7177
-6397
-6241
-6085
-6553
-6709
-6397
-6397
-6397
-6553
-7021
-7177
-7021
-6865
-6865
-6709
-6241
-5929
-5929
-6397
-7021
-7801
-8425
-9362
-9518
-9986
-9986
-10142
-10454
-10610
-10454
-10766
-10298
-10298
-10766
-10766
-10922
-10454
-10454
-10454
-10610
-10766
-10610
-9986
-10142
-10142
-10454
-10766
-10922
-12326
-13418
-14355
-15759
-17007
-17943
-17475
-14199
-10298
-7333
-4056
0
4993
10922
17007
21844
25433
29022
32298
32767
28710
17787
3588
-7645
-13106
-13262
-12170
-11078
-11234
-11390
-11078
-10922
-11234
-11390
-12170
-12014
-11702
-11546
-11546
-11858
-12326
-12014
-11702
-11390
-11546
-12014
-12482
-12014
-12014
-11546
-11702
-12014
-12326
-12170
-11546
-11234
-11234
-11390
-11546
-11546
-11390
-11078
-11234
-11546
-11858
-11858
-11390
-11546
-11390
-11858
-12170
-11858
-11858
-11390
-11390
-11702
-12014
-12014
-11702
-11234
-11078
-11546
-11702
-11546
-11546
-11078
-11390
-11234
-12014
-12014
-11858
-11234
-11390
-11702
-11858
-11546
-11546
-11546
-11234
-12014
-12326
-11858
-11702
-11390
-11702
-12014
-12170
-11702
-11546
-11546
-11546
-11546
-12014
-11858
-12014
-11546
-11546
-11546
-11858
-11546
-10766
-10610
-10142
-10454
-10142
-9518
-9205
-9205
-9362
-9362
-9518
-9205
-8737
-8893
-8581
-8269
-8737
-8581
-7957
-8269
-8113
-8269
-8893
-8893
-8581
-8113
-8269
-8893
-8893
-9049
-8581
-8581
-8269
-8581
-9518
-9049
-8893
-8893
-8581
-9205
-9362
-8737
-8737
-8425
-8737
-9205
-9362
-9674
-9830
-9518
-9518
-10454
-10454
-9986
-9986
-9674
-9986
-10298
-10298
-10298
-10298
-9674
-9830
-9986
-10454
-10298
-9830
-9674
-9830
-10298
-10610
-10454
-10610
-9518
-9986
-10298
-10610
-10454
-9986
-9986
-10298
-10298
-10454
-10142
-9830
-9986
-9830
-9986
-9674
-9674
-9674
-9518
-9362
-9674
-9674
-9362
-8893
-9049
-8581
-8581
-8581
-8425
-7957
-7489
-7645
-7489
-7645
-7645
-6865
-6397
-5929
-6085
-5929
-6241
-6085
-6241
-6553
-6709
-6865
-6553
-6553
-6241
-6553
-6865
-6709
-6865
-7333
-7021
-7021
-6865
-6241
-6397
-7177
-7801
-8113
-8893
-9362
-9830
-10298
-10142
-10454
-10610
-10766
-10298
-9986
-9986
-10142
-10454
-10454
-10454
-10298
-10298
-10454
-10922
-11078
-10922
-10766
-10610
-10922
-11234
-12170
-12482
-13574
-14511
-14979
-16071
-17787
-18099
-16227
-12482
-7801
-2964
3120
12326
20596
25901
27461
23717
14355
2184
-7489
-13262
-15135
-14979
-13418
-12482
-12326
-12482
-12482
-12326
-12170
-11702
-11390
-11546
-12014
-12326
-12638
-12170
-12170
-12014
-11858
-12326
-12482
-11858
-11858
-11702
-12014
-12326
-12638
-12482
-12326
-12326
-11858
-12326
-12170
-12326
-12482
-12170
-12014
-12170
-12482
-12170
-11858
-11858
-12014
-11858
-12014
-11546
-11702
-11546
-11546
-11702
-12014
-12014
-11702
-12014
-11858
-12482
-12638
-12482
-12014
-11858
-11702
-12326
-12638
-12638
-12326
-12170
-11858
-12014
-12326
-11702
-11702
-11858
-12014
-11702
-12014
-12014
-11702
-11858
-12482
-12638
-12950
-12794
-12950
-12482
-12794
-12794
-12950
-12950
-12950
-12950
-12950
-13262
-13886
-13418
-13106
-12950
-12482
-12794
-12638
-12014
-11702
-10922
-10922
-10922
-11078
-10454
-10298
-9518
-9674
-10142
-10142
-9830
-9830
-9674
-9674
-9518
-9830
-9986
-9674
-9518
-9518
-9518
-9674
-9205
-9205
-9049
-8893
-8893
-9518
-9518
-9205
-9049
-9205
-9205
-9518
-9518
-9362
-9362
-9362
-9986
-9986
-10142
-9986
-9986
-9518
-10142
-9986
-9830
-9986
-9674
-9830
-9674
-9830
-9830
-9830
-9518
-9674
-9830
-10142
-10298
-10298
-10142
-10142
-10298
-10922
-10922
-10298
-10142
-10298
-10922
-11234
-10922
-10610
-10298
-10298
-10298
-10922
-10922
-10610
-10142
-9986
-10298
-10454
-10922
-10610
-10766
-10610
-10298
-10454
-10610
-9986
-10142
-10298
-10922
-10922
-10454
-9986
-9674
-9518
-9205
-9205
-8581
-8425
-7957
-8269
-7801
-7801
-7801
-7021
-6865
-6865
-7177
-7801
-7801
-7801
-7333
-7177
-7645
-7489
-7333
-7333
-7177
-7957
-8113
-8581
-8269
-7957
-7177
-7021
-7489
-8425
-8893
-9205
-9518
-9986
-11078
-11390
-11234
-11390
-11078
-11078
-11234
-11390
-11390
-11078
-10766
-11078
-11546
-12014
-11546
-10922
-10922
-10766
-11234
-11546
-11546
-11234
-10766
-11234
-11390
-12014
-12170
-12638
-13418
-14043
-14667
-16071
-17163
-17631
-15759
-13106
-9205
-4056
2496
11234
19348
26057
28710
25901
17007
4993
-5617
-12326
-15291
-16071
-14667
-13262
-12794
-12794
-12950
-12794
-12638
-12326
-12326
-12326
-12638
-12794
-12482
-12638
-12326
-12482
-12794
-13106
-12950
-12950
-12638
-12794
-13418
-13886
-13886
-13262
-12950
-13106
-13106
-13262
-13106
-13262
-12794
-12950
-13574
-13730
-13574
-12950
-12950
-12794
-12794
-13106
-13418
-13574
-13262
-13106
-13106
-13262
-13262
-13262
-13106
-13262
-13262
-13262
-13106
-12950
-12950
-12950
-13106
-13418
-13262
-13106
-12950
-13106
-13106
-13418
-13106
-13106
-12794
-12638
-13262
-13574
-13730
-13106
-12950
-13418
-13730
-14043
-14043
-13886
-13886
-13886
-14511
-14823
-15291
-14979
-14823
-14979
-15135
-15291
-15135
-14823
-14199
-14511
-14355
-14667
-14199
-14043
-13574
-13418
-13418
-13106
-12950
-12170
-12014
-11702
-11702
-11702
-11234
-10766
-10454
-10298
-10766
-10610
-10454
-10298
-10142
-9986
-10298
-10454
-10142
-9986
-9674
-9518
-10142
-10298
-10142
-9986
-9518
-9986
-9986
-10610
-10142
-10142
-10298
-10298
-10766
-11078
-10922
-10298
-10142
-10454
-10454
-11234
-10922
-10766
-11078
-11234
-10922
-11546
-10922
-11078
-10922
-10922
-10922
-11390
-11078
-11234
-10922
-11234
-11390
-11702
-11390
-11702
-11390
-11858
-11858
-12326
-12014
-11702
-11546
-11702
-11702
-12014
-11702
-11702
-11234
-11546
-11702
-11858
-11702
-11390
-11234
-11234
-11390
-11858
-11858
-11702
-11078
-11390
-11546
-12014
-11702
-11234
-11390
-11390
-11858
-11858
-11546
-11234
-11234
-10922
-11234
-11390
-10922
-10766
-10454
-10142
-9986
-10298
-9986
-9362
-9362
-9205
-9518
-9205
-8893
-8425
-8425
-7957
-8269
-8425
-8581
-8269
-8581
-8425
-8893
-9205
-9205
-8893
-8581
-8737
-9362
-9049
-8893
-7957
-7489
-8425
-9362
-10610
-10610
-10922
-11234
-11858
-12170
-12638
-12482
-12014
-12014
-12014
-12638
-12794
-12638
-12170
-12482
-12326
-12950
-12950
-12638
-12326
-12170
-12170
-12638
-12950
-12950
-12482
-12638
-13418
-14979
-16383
-17163
-17787
-18567
-20128
-19972
-17787
-13730
-10454
-7801
-4681
-468
4993
12794
20752
26681
29802
28398
20128
6709
-6085
-13886
-16851
-15915
-15135
-13574
-13886
-13730
-13730
-13730
-14043
-14199
-14199
-14043
-14199
-14355
-14667
-14511
-14043
-13730
-14043
-13886
-14355
-14355
-13730
-13886
-13886
-14043
-14199
-14043
-14199
-13574
-14199
-14043
-14199
-14199
-13886
-13730
-13574
-13574
-14043
-13886
-13418
-13730
-14043
-14043
-14199
-14355
-13730
-13574
-13886
-14199
-14355
-14199
-13730
-13886
-13730
-14043
-14511
-14043
-14199
-13730
-13730
-14043
-14823
-14199
-14043
-14043
-13730
-13730
-14199
-13730
-13730
-13574
-13730
-13886
-14199
-14043
-13730
-13574
-14043
-13886
-14199
-14043
-13886
-13886
-14199
-14667
-14667
-14979
-14511
-14199
-14199
-14511
-14667
-14667
-14199
-14199
-14355
-14043
-14199
-13886
-13574
-12794
-13106
-13106
-13262
-12794
-12170
-11546
-11546
-11702
-11858
-11234
-10922
-10922
-10454
-10610
-11078
-11078
-10610
-10298
-10766
-10922
-10766
-10766
-10298
-9830
-10142
-10610
-10610
-10610
-10610
-10454
-10766
-10922
-11546
-10922
-10766
-10454
-11078
-11390
-11234
-11390
-11234
-10922
-11078
-11078
-11702
-11702
-11546
-11078
-11078
-11702
-11702
-12014
-11390
-11234
-11390
-12170
-12170
-12014
-11858
-12014
-12170
-12170
-12638
-12170
-12326
-12170
-12326
-12794
-12950
-12950
-12638
-12326
-12638
-12950
-13106
-12794
-13106
-12482
-12482
-12638
-12950
-13106
-12482
-12326
-12014
-12638
-12794
-12794
-12638
-12326
-12638
-12794
-12794
-12950
-12950
-12638
-12326
-12638
-12794
-12794
-12482
-12326
-12326
-12326
-12638
-12170
-11546
-11390
-11078
-11078
-11078
-10922
-10610
-10298
-10142
-10610
-10766
-10766
-10142
-9362
-9518
-9518
-9986
-9362
-9830
-9205
-9518
-9986
-10298
-9986
-9362
-9205
-9674
-10142
-9986
-9362
-8737
-9205
-10298
-11390
-12014
-12170
-12326
-12326
-12794
-13106
-13730
-13418
-13106
-12950
-12794
-13418
-13574
-13418
-13418
-13106
-13106
-13730
-13886
-13418
-13418
-13262
-13418
-13418
-13886
-13730
-14199
-13418
-13730
-14199
-14979
-15915
-17007
-17631
-18099
-19816
-20752
-19660
-15915
-11078
-6241
-780
7489
16851
23561
26369
24809
17163
3744
-8893
-16227
-18255
-17475
-16227
-15603
-14667
-14823
-14667
-14355
-14979
-15135
-15135
-14667
-14511
-14823
-14979
-15291
-15135
-14823
-14667
-14823
-15291
-15447
-15447
-15447
-14979
-15291
-15135
-15447
-15291
-15135
-14979
-14823
-15135
-15291
-15135
-14979
-14823
-15135
-15135
-15915
-15447
-15291
-15135
-14823
-14823
-15447
-14823
-14823
-14823
-14667
-15447
-15447
-15447
-15291
-14667
-15135
-15447
-15759
-15447
-15291
-15291
-14979
-15291
-15603
-15447
-15291
-14823
-14979
-15291
-15603
-14979
-15135
-14823
-14979
-14979
-14979
-14667
-14511
-14355
-14823
-14823
-14979
-15291
-14979
-14667
-14979
-15447
-15759
-15759
-15135
-15135
-15135
-15447
-15759
-15759
-15291
-15135
-15603
-15291
-15603
-14979
-14667
-13886
-14043
-14043
-14043
-13262
-12638
-12014
-12014
-12326
-12170
-12014
-11702
-11546
-11702
-12014
-12170
-12170
-12014
-11546
-11546
-12170
-12014
-12014
-12014
-11702
-11702
-11858
-12170
-11546
-11858
-11390
-11546
-11702
-12170
-11858
-11390
-11390
-11546
-11702
-12326
-12170
-12170
-11858
-12170
-12638
-12950
-12950
-12794
-12326
-12326
-12794
-13106
-12794
-12950
-12482
-13106
-13262
-13418
-13418
-13262
-12794
-12794
-12794
-13262
-13262
-12794
-12794
-13106
-13106
-13886
-14043
-13574
-13418
-13418
-13730
-14043
-13886
-13730
-13106
-13106
-13418
-13886
-13886
-13574
-13262
-13262
-13886
-14043
-13886
-13574
-13262
-13106
-13418
-13418
-13418
-13106
-12638
-12950
-13106
-13262
-13262
-13106
-13262
-13106
-13262
-13730
-13730
-13262
-13106
-13106
-12950
-13262
-12482
-11858
-11390
-11546
-11546
-11390
-11078
-10766
-10298
-9986
-9986
-10298
-10142
-9830
-9830
-9830
-10142
-10610
-10766
-10454
-10142
-10454
-11078
-11858
-11234
-10766
-9518
-9205
-9830
-10454
-11390
-11546
-11702
-12014
-12638
-13418
-13418
-13418
-13418
-13574
-14043
-14355
-14355
-14355
-14199
-14043
-14043
-14511
-14667
-14667
-14355
-14823
-14979
-15291
-14979
-14511
-14511
-14979
-15135
-15447
-15447
-15291
-15291
-16383
-17319
-18724
-19036
-19348
-20440
-21220
-20440
-17943
-13886
-9674
-4056
3900
12326
18724
22624
22312
16539
5773
-6085
-14199
-18411
-19192
-18255
-17007
-16695
-16695
-16695
-16383
-15759
-16071
-15759
-16071
-16071
-15291
-15447
-15603
-15291
-16227
-15915
-16227
-15759
-15759
-15759
-16071
-16071
-15603
-15915
-16071
-16383
-16539
-16383
-16695
-16227
-16383
-16227
-16539
-16227
-16227
-15915
-16071
-15915
-16539
-16539
-16227
-15915
-15759
-16383
-16539
-16383
-15915
-15447
-15603
-15915
-16227
-16227
-16071
-15759
-15603
-15915
-16227
-15759
-16071
-15915
-16227
-15759
-15759
-16071
-16383
-15603
-15447
-15447
-15759
-15447
-15291
-14823
-15291
-15447
-15915
-15759
-15603
-15603
-15603
-15759
-16071
-15759
-15759
-16071
-15915
-16383
-16695
-16695
-16851
-16227
-16851
-16851
-17475
-17163
-16851
-17007
-16851
-17007
-17163
-17319
-16539
-16227
-16071
-15603
-15759
-15759
-15135
-14511
-14667
-14355
-14355
-14199
-13574
-13418
-13262
-13418
-13730
-13730
-13574
-12794
-12794
-12950
-13106
-12794
-12482
-12326
-12170
-12638
-12794
-12638
-12170
-12482
-12638
-12950
-12950
-12950
-12794
-12482
-12794
-12794
-13262
-12950
-12326
-12638
-12482
-12950
-13106
-13262
-12794
-12482
-12638
-13106
-13106
-12950
-12794
-12794
-13106
-13262
-13730
-13574
-13418
-13418
-13418
-13418
-13886
-14043
-13574
-13262
-13106
-13262
-13418
-14199
-14043
-13730
-13418
-13730
-13730
-13730
-13418
-13106
-12950
-13262
-14043
-14199
-14043
-13886
-13574
-13574
-14043
-14043
-13886
-13418
-13262
-14043
-14355
-13886
-13730
-13262
-13106
-13886
-14043
-13574
-13262
-12794
-13106
-13730
-13886
-13574
-13418
-13418
-13262
-13418
-13262
-12794
-12794
-11858
-11390
-11546
-12482
-12170
-11546
-11078
-10922
-11234
-11858
-11546
-11078
-10298
-10142
-10142
-10298
-9986
-9986
-9830
-9986
-10610
-11078
-10922
-10610
-10610
-11234
-11546
-12014
-11546
-10610
-10142
-10454
-11858
-12170
-12794
-13106
-13106
-13730
-14043
-14355
-13886
-14199
-13574
-13886
-14043
-14355
-14511
-14355
-14199
-14199
-14511
-14979
-14511
-14199
-14199
-14667
-14667
-14823
-15135
-14667
-14979
-14355
-14979
-15135
-15135
-15447
-16383
-16851
-17787
-18567
-19816
-20908
-19660
-16851
-12950
-8737
-2496
5149
13574
21064
24965
25901
20596
10766
-1248
-10922
-16539
-18880
-19504
-18411
-17007
-16227
-15915
-16539
-16071
-15603
-15447
-15447
-15759
-15759
-15759
-15447
-15603
-15603
-15603
-16227
-15759
-15447
-15447
-15603
-15915
-16071
-15915
-15603
-14979
-15603
-15759
-16227
-16071
-15759
-15291
-15915
-15759
-15603
-15759
-15291
-14979
-15291
-15135
-15603
-15603
-15291
-15135
-15447
-15759
-15759
-15915
-15603
-15291
-15291
-15603
-15915
-16071
-15447
-15447
-15291
-16071
-15915
-15759
-15447
-15447
-15135
-15291
-15915
-15447
-15135
-14979
-14979
-15447
-15915
-16227
-15915
-15759
-16071
-16227
-16851
-16851
-16227
-16539
-16695
-16851
-17319
-17319
-16851
-16851
-17007
-16851
-17163
-16851
-16539
-16539
-16383
-16383
-16227
-15915
-15447
-14979
-14511
-14667
-14511
-14199
-13730
-12950
-12950
-12794
-12794
-12170
-12170
-11858
-11858
-12170
-12326
-12014
-11858
-11390
-11702
-12014
-11702
-11858
-11546
-11390
-11546
-11858
-12482
-12326
-12170
-12014
-12326
-12482
-12794
-12794
-12482
-12170
-12326
-12326
-12638
-12638
-12326
-12014
-12482
-12794
-12794
-12794
-12482
-12014
-12326
-12326
-12482
-12638
-12170
-12014
-12638
-12950
-13106
-12950
-12794
-12794
-12638
-13106
-13574
-13418
-13418
-13106
-12794
-13262
-13730
-13886
-12950
-12950
-13106
-13106
-13886
-13262
-12794
-12950
-13106
-12794
-13106
-12638
-12482
-12170
-12170
-12326
-12794
-12638
-12326
-12326
-12326
-12638
-13106
-13106
-12638
-12326
-12170
-12794
-12950
-12950
-12794
-12170
-12170
-12482
-12326
-12326
-11702
-11546
-10766
-10922
-10610
-10298
-9986
-9362
-9518
-9986
-9986
-9674
-8893
-8581
-8737
-9049
-9205
-9518
-9362
-9362
-9674
-9830
-10142
-9518
-9518
-9830
-9830
-9674
-9518
-8581
-7957
-8113
-9205
-10142
-10610
-10922
-10922
-11234
-11702
-11858
-12638
-12482
-12638
-12170
-12638
-12950
-13262
-13106
-12950
-13106
-12794
-13262
-13262
-13418
-12794
-12794
-12482
-13106
-13418
-13262
-12950
-13418
-14043
-15291
-16851
-17163
-17787
-18567
-18880
-17319
-13262
-7957
-2496
4993
13886
22000
27617
31362
32610
30426
23092
10922
-2184
-12638
-17163
-17475
-16695
-15603
-14199
-14199
-13886
-13886
-13730
-14199
-14511
-14511
-14511
-14511
-14511
-14979
-15135
-14979
-14667
-14667
-14355
-14355
-14823
-14823
-14667
-14199
-14199
-14355
-14355
-14355
-14199
-14043
-14043
-14199
-14823
-14511
-14511
-14043
-14043
-14199
-14979
-14667
-13886
-13574
-13730
-14043
-14355
-14355
-13886
-13418
-13262
-14043
-14355
-14199
-14043
-13730
-13886
-13730
-14043
-13886
-13730
-13574
-14043
-14043
-14199
-14199
-14355
-14043
-13574
-14511
-14511
-14043
-13574
-13418
-13574
-14043
-14511
-14511
-14355
-14199
-14199
-14355
-14667
-14667
-14355
-14043
-14199
-14355
-14823
-14355
-14355
-14043
-14043
-13886
-13886
-13574
-13262
-13106
-12950
-12326
-12638
-12014
-12014
-11546
-11234
-11234
-11234
-11078
-11078
-10454
-10454
-10766
-10610
-10454
-9986
-9986
-10142
-10142
-10454
-10298
-10142
-10142
-10454
-10922
-11234
-11390
-10766
-10454
-10922
-10922
-11078
-11234
-10766
-10298
-10298
-10766
-11078
-11078
-10610
-10766
-10922
-11234
-11546
-11702
-11234
-11390
-11234
-11390
-11858
-11702
-11390
-11390
-11390
-11702
-12170
-12014
-11702
-11546
-11546
-11702
-12170
-11858
-11546
-10766
-11234
-11546
-12014
-11702
-11702
-11546
-11546
-12326
-12482
-12014
-12170
-11858
-12014
-11858
-12326
-12170
-12014
-11702
-11702
-11858
-12170
-11858
-11702
-11702
-11390
-11546
-11546
-11078
-11234
-10922
-10454
-10922
-10922
-10610
-9986
-9205
-9205
-9518
-9830
-9362
-8893
-8893
-8893
-8893
-8425
-8581
-8113
-7645
-7801
-8113
-8425
-8737
-8737
-8269
-8269
-8269
-8581
-8425
-7957
-7489
-7177
-7489
-8581
-9674
-9518
-9986
-10298
-10922
-11546
-11702
-11390
-11546
-11546
-11546
-11858
-12014
-11858
-11546
-11234
-11546
-12014
-11702
-11702
-11858
-11858
-12326
-12482
-12482
-12170
-12170
-12170
-12326
-12950
-13262
-13574
-14823
-15603
-16383
-17787
-18880
-18567
-15603
-11234
-7177
-1716
6241
15603
22780
26681
26057
19348
7021
-4993
-12950
-16383
-16071
-14667
-13574
-12950
-12950
-12794
-12638
-12950
-13106
-12950
-12482
-12950
-13106
-13418
-13106
-12638
-12794
-12482
-12950
-13418
-13106
-13262
-12638
-12794
-13106
-13574
-13418
-13262
-12950
-13106
-13262
-13574
-13262
-13106
-12794
-12794
-13106
-13262
-12950
-12638
-12482
-12638
-12482
-12794
-13106
-12638
-12326
-12950
-12794
-13418
-13262
-12950
-12950
-12794
-13106
-13418
-13262
-12794
-12794
-12482
-12638
-12950
-13106
-12638
-12482
-12170
-12482
-12482
-12638
-12326
-12170
-12638
-12482
-13418
-13418
-13106
-12950
-12638
-13262
-13574
-13418
-13262
-12950
-13262
-13262
-13730
-13574
-12950
-12950
-13262
-13418
-13574
-12794
-12326
-12014
-11702
-11858
-12014
-11858
-11390
-10766
-10766
-11234
-11390
-10766
-10610
-10142
-10142
-10298
-10610
-10454
-10142
-9674
-9518
-9674
-10454
-10298
-9986
-9830
-9674
-9674
-9830
-9518
-9518
-9205
-9362
-9830
-10298
-10298
-9830
-9518
-10142
-10454
-10454
-10610
-10454
-9986
-10610
-11078
-10922
-11234
-10922
-10610
-10454
-10766
-11234
-10922
-10922
-10766
-10766
-11078
-11390
-11234
-11234
-11078
-11234
-11546
-11702
-12014
-11702
-11546
-11858
-12014
-12014
-11858
-11858
-11546
-11546
-11702
-11546
-11546
-11234
-11234
-11078
-11858
-12482
-12326
-12170
-11858
-11858
-12170
-12014
-11546
-11702
-11390
-11234
-11390
-11858
-11858
-11546
-11702
-11858
-12170
-12326
-12170
-11078
-10922
-11234
-11702
-12014
-11858
-11702
-10922
-11078
-11078
-11078
-10766
-10298
-9830
-9674
-10142
-9830
-9362
-8893
-8269
-7957
-8425
-8269
-8269
-7957
-7957
-8269
-8581
-9049
-8581
-8581
-8893
-9205
-9362
-9049
-8425
-8581
-9205
-9674
-10766
-11390
-11546
-12170
-12014
-12326
-12794
-12950
-12638
-12326
-12482
-12638
-12482
-12638
-12794
-12170
-12326
-12326
-12950
-13418
-13418
-12950
-12794
-12638
-12794
-12794
-13106
-12794
-12950
-13262
-14199
-15603
-15915
-16227
-16227
-17787
-19192
-20440
-19972
-17787
-14823
-11234
-7333
-1248
7489
16071
22156
24809
22468
